BLOCK DarkMatter
   1   7.454480E-02   #dark matter relick densisty
   2   6.227636E-01   #ratio omega_N/omega_0
   100 0.234451 # ~N1 ~N1 -> h2 Z
   101 0.186470 # ~N1 ~N1 -> h2 h2
   102 0.181329 # ~N1 ~N1 -> Wm Wp
   103 0.098296 # ~N1 ~N1 -> Z Z
   104 0.072049 # ~N1 ~N1 -> h1 Z
   105 0.036209 # ~nI1 ~N1 -> Z nu4
   106 0.034539 # ~N1 ~N1 -> u3 U3
   107 0.028270 # ~nI1 ~nI1 -> Wm Wp
   108 0.027474 # ~N1 ~N1 -> h1 h2
   109 0.027146 # ~nI1 ~N1 -> h1 nu4
   110 0.018506 # ~nI1 ~N1 -> h2 nu4
   111 0.015665 # ~nI1 ~nI1 -> h1 h2
   112 0.012918 # ~nI1 ~nI1 -> Z Z
   301  1.634819E+02  #Dark Matter Mass (GeV)
   302  2.407643E-26  #SigmaV=[cm^3/s]
   401  163.481868    0.000266
   402  162.816613    0.000000
   403  161.607235    0.000000
   404  160.054487    0.000000
   405  158.235013    0.000000
   406  156.196249    0.000000
   407  153.972494    0.000000
   408  151.590686    0.000000
   409  149.073090    0.000001
   410  146.438730    0.000060
   411  143.704243    0.000060
   412  140.884419    0.000061
   413  137.992563    0.000062
   414  135.040744    0.000063
   415  132.039983    0.000065
   416  129.000390    0.000067
   417  125.931263    0.000069
   418  122.841179    0.000072
   419  119.738055    0.000076
   420  116.629204    0.000080
   421  113.521383    0.000085
   422  110.420828    0.000091
   423  107.333295    0.000097
   424  104.264081    0.000105
   425  101.218059    0.000114
   426   98.199699    0.000125
   427   95.213087    0.000137
   428   92.261952    0.000152
   429   89.349681    0.000170
   430   86.479338    0.000190
   431   83.653681    0.000215
   432   80.875178    0.000244
   433   78.146024    0.000279
   434   75.468153    0.000320
   435   72.843254    0.000368
   436   70.272785    0.000426
   437   67.757986    0.000494
   438   65.299888    0.000574
   439   62.899331    0.000669
   440   60.556972    0.000780
   441   58.273297    0.000911
   442   56.048633    0.001065
   443   53.883156    0.001245
   444   51.776905    0.001456
   445   49.729786    0.001702
   446   47.741588    0.001990
   447   45.811988    0.002326
   448   43.940560    0.002716
   449   42.126783    0.003173
   450   40.370051    0.003703
   451   38.669678    0.004320
   452   37.024908    0.005034
   453   35.434917    0.005862
   454   33.898828    0.006818
   455   32.415707    0.007922
   456   30.984576    0.009197
   457   29.604419    0.010667
   458   28.274181    0.012361
   459   26.992780    0.014255
   460   25.759106    0.016491
   461   24.572030    0.019067
   462   23.430407    0.022015
   463   22.333077    0.025392
   464   21.278873    0.029254
   465   20.266621    0.033673
   466   19.295145    0.038723
   467   18.363269    0.044481
   468   17.469822    0.051041
   469   16.613636    0.058499
   470   15.793552    0.066999
   471   15.008424    0.076620
   472   14.257113    0.087557
   473   13.538497    0.099928
   474   12.851470    0.113929
   475   12.194941    0.129766
   476   11.567839    0.147619
   477   10.969109    0.167760
   478   10.397721    0.190394
   479    9.852662    0.215835
   480    9.332943    0.244381
   481    8.837598    0.276340
   482    8.365682    0.312081
   483    7.916276    0.351991
   484    7.488482    0.396489
   485    7.081428    0.446114
   486    6.694267    0.501407
   487    6.326174    0.562830
   488    5.976350    0.631068
   489    5.644020    0.706662
   490    5.328432    0.790291
   491    5.028861    0.882747
   492    4.744601    0.984820
   493    4.474975    1.097502
   494    4.219326    1.221766
   495    3.977020    1.358541
   496    3.747447    1.508949
   497    3.530018    1.674030
   498    3.324167    1.854905
   499    3.129348    2.052602
   500    2.945037    2.268207
   501    2.770729    2.502746
   502    2.605942    2.757512
   503    2.450209    3.033712
   504    2.303085    3.333045
   505    2.164143    3.657455
   506    2.032974    4.009152
   507    1.909185    4.390294
   508    1.792401    4.802256
   509    1.682263    5.246675
   510    1.578429    5.724237
   511    1.480569    6.235821
   512    1.388372    6.782060
   513    1.301538    7.363544
   514    1.219783    7.981034
   515    1.142834    8.635174
   516    1.070433    9.326808
   517    1.002332   10.055802
   518    0.938298   10.823156
   519    0.878106   11.628922
   520    0.821544   12.474491
   521    0.768411   13.360227
   522    0.718512   14.286798
   523    0.671668   15.254596
   524    0.627704   16.263156
   525    0.586455   17.311576
   526    0.547767   18.398177
   527    0.511491   19.519984
   528    0.477487   20.673815
   529    0.445623   21.855026
   530    0.415773   23.059148
   531    0.387818   24.281650
   532    0.361646   25.517130
   533    0.337150   26.758751
   534    0.314229   28.000503
   535    0.292789   29.235256
   536    0.272740   30.456207
   537    0.253996   31.658391
   538    0.236479   32.836101
   539    0.220113   33.985709
   540    0.204825   35.104046
   541    0.190551   36.190156
   542    0.177225   37.236279
   543    0.164788   38.237970
   544    0.153185   39.191116
   545    0.142363   40.086082
   546    0.132271   40.919908
   547    0.122864   41.690319
   548    0.114097   42.393880
   549    0.105928   43.024869
   550    0.098320   43.581701
   551    0.091235   44.055127
   552    0.084640   44.436955
   553    0.078502   44.722255
   554    0.072791   44.904768
   555    0.067479   44.977753
   556    0.062539   44.945621
   557    0.057946   44.808144
   558    0.053678   44.558147
   559    0.049712   44.208744
   560    0.046027   43.752084
   561    0.042606   43.185347
   562    0.039429   42.529598
   563    0.036480   41.775123
   564    0.033744   40.930436
   565    0.031206   40.011082
   566    0.028851   39.013858
   567    0.026668   37.953133
   568    0.024644   36.830645
   569    0.022769   35.661319
   570    0.021031   34.448334
   571    0.019421   33.200356
   572    0.017930   31.924544
   573    0.016550   30.631461
   574    0.015273   29.328520
   575    0.014090   28.020659
   576    0.012997   26.721523
   577    0.011985   25.438120
   578    0.011050   24.173274
   579    0.010185   22.940955
   580    0.009386   21.740206
   581    0.008647   20.579449
   582    0.007965   19.462441
   583    0.007335   18.402168
   584    0.006754   17.396188
   585    0.006217   16.458521
   586    0.005721   15.589878
   587    0.005264   14.794266
   588    0.004842   14.073940
   589    0.004453   13.429421
   590    0.004094   12.862785
   591    0.003764   12.377673
   592    0.003459   11.975603
   593    0.003178   11.659291
   594    0.002920   11.431519
   595    0.002681   11.291560
   596    0.002462   11.241149
   597    0.002260   11.281476
   598    0.002075   11.414109
   599    0.001904   11.640138
   600    0.001747   11.964237
   601    0.001602   12.393651
   602    0.001469   12.930153
   603    0.001347   13.573061
   604    0.001235   14.325696
   605    0.001132   15.186065
   606    0.001037   16.153018
   607    0.000950   17.234142
   608    0.000870   18.439038
   609    0.000796   19.777551
   610    0.000729   21.265571
   611    0.000667   22.910299
   612    0.000611   24.716766
   613    0.000559   26.695652
   614    0.000511   28.868283
   615    0.000467   31.241883
   616    0.000427   33.832859
   617    0.000391   36.666626
   618    0.000357   39.752949
   619    0.000326   43.106480
   620    0.000298   46.746907
   621    0.000272   50.703237
   622    0.000249   54.987026
   623    0.000227   59.644540
   624    0.000207   64.682018
   625    0.000189   70.157971
   626    0.000172   76.092023
   627    0.000157   82.536850
   628    0.000144   89.538464
   629    0.000131   97.183987
   630    0.000119  105.527496
   631    0.000109  114.616654
   632    0.000099  124.496018
   633    0.000090  135.207538
   634    0.000082  146.886728
   635    0.000075  159.597347
   636    0.000068  173.428245
   637    0.000062  188.478001
   638    0.000057  204.852916
   639    0.000051  222.668340
   640    0.000047  242.059300
   641    0.000043  263.158881
   642    0.000039  286.095366
   643    0.000035  311.005900
   644    0.000032  338.000701
   645    0.000029  367.273338
   646    0.000026  398.993969
   647    0.000024  433.420784
   648    0.000022  470.749778
   649    0.000020  511.172496
#CDM-nucleon cross sections[pb]:
   201 7.202538E-10 #proton SI
   202 1.321023E-03 #proton SD
   203 5.661853E-10 #neutron SI
   204 1.010045E-03 #neutron SD
