#	output of MicrOMEGAs
BLOCK OMEGA
     0   94.003846   # Darkmatter mass
     1    0.054058   # relic density
   100    0.281178   # ~nI1 ~nI1 -> Ah2 Ah2
   101    0.171961   # ~nI1 ~nI1 -> Wm Wp
   102    0.132650   # ~nR1 ~nR1 -> Ah2 Ah2
   103    0.105052   # ~nR1 ~nR1 -> Wm Wp
   104    0.059044   # ~nI1 ~nI1 -> nu3 nu5
   105    0.048685   # ~nI1 ~nI1 -> Z Z
   106    0.034885   # ~nR1 ~nR1 -> nu3 nu4
   107    0.030916   # ~nR1 ~nR1 -> Z Z
   108    0.021013   # ~nI1 ~nI1 -> nu3 nu4
   109    0.017124   # ~nI1 ~nI1 -> nu1 nu6
   110    0.017124   # ~nI1 ~nI1 -> nu1 nu7
   111    0.011400   # ~nR1 ~nR1 -> nu3 nu5
   112    0.010766   # ~nR1 ~nR1 -> nu1 nu6
   113    0.010766   # ~nR1 ~nR1 -> nu1 nu7
BLOCK INDIRECT
     0   1.585175e-25   # sigmaV
     1   94.003846    0.000225
     2   93.621318    0.000000
     3   92.925912    0.000000
     4   92.033065    0.000000
     5   90.986848    0.000000
     6   89.814537    0.000000
     7   88.535853    0.000001
     8   87.166288    0.000001
     9   85.718643    0.000001
    10   84.203857    0.000001
    11   82.631498    0.000001
    12   81.010068    0.000001
    13   79.347219    0.000009
    14   77.649892    0.000009
    15   75.924422    0.000010
    16   74.176623    0.000012
    17   72.411842    0.000013
    18   70.635010    0.000016
    19   68.850680    0.000019
    20   67.063057    0.000024
    21   65.276026    0.000029
    22   63.493173    0.000036
    23   61.717808    0.000044
    24   59.952977    0.000054
    25   58.201481    0.000066
    26   56.465891    0.000080
    27   54.748557    0.000096
    28   53.051623    0.000116
    29   51.377035    0.000139
    30   49.726557    0.000167
    31   48.101773    0.000199
    32   46.504104    0.000237
    33   44.934811    0.000281
    34   43.395006    0.000334
    35   41.885661    0.000399
    36   40.407613    0.000478
    37   38.961576    0.000575
    38   37.548143    0.000692
    39   36.167797    0.000833
    40   34.820915    0.001000
    41   33.507778    0.001197
    42   32.228572    0.001427
    43   30.983399    0.001698
    44   29.772281    0.002016
    45   28.595166    0.002389
    46   27.451931    0.002825
    47   26.342390    0.003334
    48   25.266298    0.003928
    49   24.223357    0.004624
    50   23.213217    0.005439
    51   22.235484    0.006385
    52   21.289723    0.007485
    53   20.375462    0.008766
    54   19.492193    0.010257
    55   18.639383    0.011993
    56   17.816467    0.014008
    57   17.022862    0.016336
    58   16.257961    0.019021
    59   15.521141    0.022125
    60   14.811765    0.025725
    61   14.129184    0.029894
    62   13.472738    0.034693
    63   12.841761    0.040192
    64   12.235583    0.046512
    65   11.653527    0.053807
    66   11.094917    0.062244
    67   10.559079    0.071966
    68   10.045337    0.083108
    69    9.553021    0.095833
    70    9.081464    0.110375
    71    8.630006    0.126988
    72    8.197994    0.145977
    73    7.784783    0.167645
    74    7.389735    0.192318
    75    7.012223    0.220376
    76    6.651633    0.252185
    77    6.307357    0.288253
    78    5.978802    0.328997
    79    5.665387    0.375033
    80    5.366544    0.426920
    81    5.081715    0.485289
    82    4.810358    0.550840
    83    4.551944    0.624426
    84    4.305958    0.706825
    85    4.071898    0.799052
    86    3.849276    0.902042
    87    3.637619    1.017015
    88    3.436466    1.145053
    89    3.245373    1.287413
    90    3.063906    1.445438
    91    2.891649    1.620455
    92    2.728197    1.814040
    93    2.573159    2.027649
    94    2.426158    2.262944
    95    2.286829    2.521552
    96    2.154822    2.805157
    97    2.029799    3.115675
    98    1.911432    3.454676
    99    1.799409    3.823960
   100    1.693428    4.225201
   101    1.593199    4.660202
   102    1.498445    5.130833
   103    1.408897    5.639784
   104    1.324299    6.190283
   105    1.244406    6.786230
   106    1.168982    7.431793
   107    1.097802    8.130622
   108    1.030650    8.884956
   109    0.967320    9.696072
   110    0.907614   10.563402
   111    0.851343   11.485556
   112    0.798329   12.460854
   113    0.748399   13.487971
   114    0.701388   14.565532
   115    0.657142   15.692383
   116    0.615510   16.867339
   117    0.576352   18.089176
   118    0.539532   19.356090
   119    0.504921   20.665756
   120    0.472397   22.015441
   121    0.441844   23.401814
   122    0.413152   24.820519
   123    0.386216   26.267297
   124    0.360936   27.736781
   125    0.337218   29.222274
   126    0.314972   30.719932
   127    0.294113   32.223697
   128    0.274560   33.727319
   129    0.256238   35.225238
   130    0.239074   36.712488
   131    0.223000   38.180154
   132    0.207950   39.619603
   133    0.193865   41.019593
   134    0.180685   42.369218
   135    0.168357   43.655414
   136    0.156828   44.870856
   137    0.146051   46.006846
   138    0.135978   47.059136
   139    0.126567   48.022302
   140    0.117777   48.893557
   141    0.109569   49.669239
   142    0.101906   50.345620
   143    0.094755   50.920520
   144    0.088083   51.388444
   145    0.081860   51.752696
   146    0.076057   52.002052
   147    0.070648   52.137813
   148    0.065607   52.148796
   149    0.060910   52.034488
   150    0.056535   51.788644
   151    0.052461   51.410624
   152    0.048669   50.894928
   153    0.045140   50.251389
   154    0.041856   49.488042
   155    0.038801   48.610051
   156    0.035961   47.631615
   157    0.033320   46.561720
   158    0.030865   45.421095
   159    0.028585   44.204068
   160    0.026466   42.930387
   161    0.024499   41.594126
   162    0.022672   40.197021
   163    0.020977   38.744357
   164    0.019403   37.240151
   165    0.017944   35.688089
   166    0.016590   34.104239
   167    0.015334   32.503642
   168    0.014171   30.894330
   169    0.013092   29.296020
   170    0.012093   27.720657
   171    0.011167   26.179458
   172    0.010310   24.684227
   173    0.009517   23.235913
   174    0.008782   21.850131
   175    0.008102   20.528057
   176    0.007473   19.278144
   177    0.006892   18.100871
   178    0.006354   17.002029
   179    0.005857   15.979607
   180    0.005397   15.034734
   181    0.004972   14.167937
   182    0.004580   13.378242
   183    0.004218   12.668014
   184    0.003883   12.039897
   185    0.003575   11.500396
   186    0.003290   11.052347
   187    0.003027   10.703275
   188    0.002784   10.456277
   189    0.002560   10.313467
   190    0.002354   10.272874
   191    0.002164   10.333192
   192    0.001989   10.489271
   193    0.001827   10.735297
   194    0.001679   11.068117
   195    0.001542   11.480877
   196    0.001416   11.968348
   197    0.001300   12.528874
   198    0.001193   13.163301
   199    0.001095   13.875328
   200    0.001004   14.672683
   201    0.000921   15.566106
   202    0.000845   16.568015
   203    0.000775   17.695313
   204    0.000710   18.958206
   205    0.000651   20.370618
   206    0.000596   21.936689
   207    0.000546   23.663198
   208    0.000500   25.552201
   209    0.000458   27.598473
   210    0.000419   29.809948
   211    0.000384   32.187100
   212    0.000351   34.738451
   213    0.000321   37.486525
   214    0.000294   40.445297
   215    0.000269   43.645632
   216    0.000246   47.118146
   217    0.000225   50.897891
   218    0.000205   54.998905
   219    0.000188   59.433461
   220    0.000171   64.227795
   221    0.000157   69.365864
   222    0.000143   74.882259
   223    0.000130   80.779210
   224    0.000119   87.069892
   225    0.000109   93.773224
   226    0.000099  100.952767
   227    0.000090  108.617981
   228    0.000083  116.860630
   229    0.000075  125.700301
   230    0.000069  135.228896
   231    0.000063  145.534482
   232    0.000057  156.666806
   233    0.000052  168.669965
   234    0.000047  181.651280
   235    0.000043  195.619435
   236    0.000039  210.567679
   237    0.000036  226.531385
   238    0.000033  243.411249
   239    0.000030  261.202135
   240    0.000027  279.891050
   241    0.000024  299.556970
   242    0.000022  320.416977
   243    0.000020  342.850765
   244    0.000018  367.376293
   245    0.000017  394.666804
   246    0.000015  425.453515
   247    0.000014  460.443692
   248    0.000013  500.379135
   249    0.000011  545.844483
BLOCK DIRECT
     1   1.092860e-10   #proton SI
     2   0.000000e+00   #proton SD
     3   1.044205e-10   #neutron SI
     4   0.000000e+00   #neutron SD
