BLOCK DarkMatter
   1   4.489979E-02   #dark matter relick densisty
   2   3.751026E-01   #ratio omega_N/omega_0
   100 0.942534 # ~nR1 ~nR1 -> Ah2 Ah2
   101 0.045660 # ~nR1 ~nR1 -> nu4 nu4
   301  8.264703E+01  #Dark Matter Mass (GeV)
   302  4.253950E-26  #SigmaV=[cm^3/s]
   401   82.647030    0.000003
   402   82.310715    0.000000
   403   81.699323    0.000000
   404   80.914343    0.000000
   405   79.994522    0.000000
   406   78.963840    0.000000
   407   77.839637    0.000000
   408   76.635532    0.000000
   409   75.362780    0.000000
   410   74.030999    0.000000
   411   72.648600    0.000000
   412   71.223059    0.000000
   413   69.761103    0.000000
   414   68.268833    0.000000
   415   66.751821    0.000000
   416   65.215177    0.000002
   417   63.663604    0.000002
   418   62.101435    0.000002
   419   60.532674    0.000002
   420   58.961018    0.000003
   421   57.389882    0.000003
   422   55.822420    0.000003
   423   54.261540    0.000004
   424   52.709923    0.000005
   425   51.170029    0.000006
   426   49.644120    0.000007
   427   48.134260    0.000009
   428   46.642336    0.000011
   429   45.170060    0.000013
   430   43.718979    0.000016
   431   42.290490    0.000020
   432   40.885838    0.000024
   433   39.506135    0.000030
   434   38.152357    0.000036
   435   36.825360    0.000044
   436   35.525878    0.000054
   437   34.254540    0.000065
   438   33.011867    0.000079
   439   31.798284    0.000095
   440   30.614122    0.000114
   441   29.459627    0.000136
   442   28.334965    0.000164
   443   27.240225    0.000196
   444   26.175425    0.000233
   445   25.140520    0.000278
   446   24.135401    0.000330
   447   23.159906    0.000391
   448   22.213820    0.000462
   449   21.296879    0.000544
   450   20.408776    0.000640
   451   19.549165    0.000753
   452   18.717664    0.000884
   453   17.913856    0.001037
   454   17.137298    0.001215
   455   16.387517    0.001422
   456   15.664020    0.001664
   457   14.966292    0.001947
   458   14.293800    0.002277
   459   13.645997    0.002662
   460   13.022322    0.003110
   461   12.422205    0.003633
   462   11.845066    0.004243
   463   11.290319    0.004953
   464   10.757374    0.005780
   465   10.245638    0.006742
   466    9.754515    0.007860
   467    9.283413    0.009159
   468    8.831737    0.010664
   469    8.398899    0.012410
   470    7.984312    0.014430
   471    7.587396    0.016764
   472    7.207576    0.019457
   473    6.844286    0.022561
   474    6.496964    0.026132
   475    6.165061    0.030239
   476    5.848034    0.034952
   477    5.545351    0.040351
   478    5.256490    0.046523
   479    4.980939    0.053566
   480    4.718199    0.061588
   481    4.467781    0.070708
   482    4.229208    0.081052
   483    4.002014    0.092755
   484    3.785746    0.105969
   485    3.579963    0.120858
   486    3.384236    0.137603
   487    3.198150    0.156402
   488    3.021299    0.177466
   489    2.853292    0.201022
   490    2.693749    0.227305
   491    2.542303    0.256568
   492    2.398598    0.289070
   493    2.262290    0.325085
   494    2.133048    0.364902
   495    2.010552    0.408821
   496    1.894494    0.457156
   497    1.784574    0.510253
   498    1.680508    0.568408
   499    1.582018    0.631963
   500    1.488841    0.701200
   501    1.400721    0.776376
   502    1.317414    0.857725
   503    1.238685    0.945519
   504    1.164307    1.040090
   505    1.094066    1.142130
   506    1.027755    1.252383
   507    0.965174    1.371778
   508    0.906135    1.501147
   509    0.850456    1.641025
   510    0.797963    1.791554
   511    0.748491    1.952434
   512    0.701881    2.123055
   513    0.657983    2.302721
   514    0.616652    2.490725
   515    0.577751    2.686424
   516    0.541149    2.889255
   517    0.506722    3.098580
   518    0.474349    3.313775
   519    0.443920    3.534127
   520    0.415326    3.758901
   521    0.388464    3.987328
   522    0.363239    4.218763
   523    0.339557    4.452451
   524    0.317331    4.687594
   525    0.296478    4.923271
   526    0.276919    5.158108
   527    0.258580    5.390411
   528    0.241390    5.618180
   529    0.225282    5.839443
   530    0.210191    6.052605
   531    0.196059    6.256683
   532    0.182827    6.451187
   533    0.170443    6.635664
   534    0.158856    6.809687
   535    0.148017    6.972727
   536    0.137881    7.124126
   537    0.128406    7.263249
   538    0.119550    7.389267
   539    0.111276    7.501785
   540    0.103548    7.600103
   541    0.096331    7.683255
   542    0.089595    7.751277
   543    0.083307    7.803087
   544    0.077442    7.837939
   545    0.071970    7.855663
   546    0.066869    7.856191
   547    0.062113    7.838615
   548    0.057681    7.803767
   549    0.053551    7.751420
   550    0.049705    7.681524
   551    0.046123    7.594472
   552    0.042789    7.490351
   553    0.039686    7.369835
   554    0.036799    7.233800
   555    0.034113    7.082418
   556    0.031616    6.916559
   557    0.029294    6.737343
   558    0.027136    6.545401
   559    0.025131    6.342128
   560    0.023269    6.129746
   561    0.021539    5.907587
   562    0.019933    5.680318
   563    0.018442    5.443693
   564    0.017059    5.200714
   565    0.015776    4.953028
   566    0.014586    4.701351
   567    0.013482    4.447496
   568    0.012459    4.193893
   569    0.011511    3.942798
   570    0.010632    3.696463
   571    0.009818    3.457166
   572    0.009065    3.226301
   573    0.008367    3.004794
   574    0.007721    2.793263
   575    0.007123    2.591893
   576    0.006570    2.401228
   577    0.006059    2.221717
   578    0.005586    2.053193
   579    0.005149    1.897501
   580    0.004745    1.754675
   581    0.004372    1.625637
   582    0.004027    1.510413
   583    0.003708    1.408941
   584    0.003414    1.320664
   585    0.003143    1.244885
   586    0.002892    1.180478
   587    0.002661    1.126570
   588    0.002448    1.082417
   589    0.002251    1.047619
   590    0.002070    1.021994
   591    0.001903    1.005616
   592    0.001749    0.998484
   593    0.001607    1.000681
   594    0.001476    1.012221
   595    0.001356    1.033088
   596    0.001245    1.063284
   597    0.001143    1.102804
   598    0.001049    1.151838
   599    0.000962    1.210403
   600    0.000883    1.278505
   601    0.000810    1.356046
   602    0.000743    1.442910
   603    0.000681    1.539036
   604    0.000624    1.644524
   605    0.000572    1.759694
   606    0.000524    1.884953
   607    0.000480    2.020805
   608    0.000440    2.167774
   609    0.000403    2.326339
   610    0.000369    2.497010
   611    0.000337    2.680360
   612    0.000309    2.877007
   613    0.000282    3.087620
   614    0.000258    3.312908
   615    0.000236    3.553759
   616    0.000216    3.811177
   617    0.000197    4.086229
   618    0.000180    4.379798
   619    0.000165    4.692831
   620    0.000151    5.026294
   621    0.000138    5.381151
   622    0.000126    5.758499
   623    0.000115    6.159181
   624    0.000105    6.584390
   625    0.000096    7.035065
   626    0.000087    7.512662
   627    0.000080    8.018267
   628    0.000073    8.553551
   629    0.000066    9.120112
   630    0.000060    9.719597
   631    0.000055   10.353474
   632    0.000050   11.023334
   633    0.000046   11.730795
   634    0.000042   12.477411
   635    0.000038   13.263737
   636    0.000034   14.089389
   637    0.000031   14.954318
   638    0.000029   15.856770
   639    0.000026   16.794660
   640    0.000024   17.765134
   641    0.000022   18.764115
   642    0.000020   19.787956
   643    0.000018   20.831614
   644    0.000016   21.889974
   645    0.000015   22.958181
   646    0.000013   24.029872
   647    0.000012   25.098703
   648    0.000011   26.155510
   649    0.000010   27.192211
#CDM-nucleon cross sections[pb]:
   201 3.446563E-12 #proton SI
   202 0.000000E+00 #proton SD
   203 3.544212E-12 #neutron SI
   204 0.000000E+00 #neutron SD
