BLOCK DarkMatter
   1   4.220741E-03   #dark matter relick densisty
   2   3.526100E-02   #ratio omega_N/omega_0
   100 0.540585 # ~nR1 ~nR1 -> h2 h2
   101 0.227144 # ~nR1 ~nR1 -> h1 h2
   102 0.131472 # ~nR1 ~nR1 -> h1 h1
   103 0.056031 # ~nR1 ~nR1 -> Wm Wp
   104 0.025026 # ~nR1 ~nR1 -> Z Z
   105 0.010400 # ~nR1 ~N1 -> h2 nu4
   301  1.467723E+02  #Dark Matter Mass (GeV)
   302  7.577686E-25  #SigmaV=[cm^3/s]
   401  146.772316    0.000021
   402  146.175057    0.000000
   403  145.089290    0.000000
   404  143.695249    0.000000
   405  142.061744    0.000000
   406  140.231364    0.000000
   407  138.234899    0.000000
   408  136.096537    0.000000
   409  133.836265    0.000000
   410  131.471164    0.000000
   411  129.016171    0.000000
   412  126.484562    0.000000
   413  123.888283    0.000000
   414  121.238171    0.000001
   415  118.544120    0.000011
   416  115.815204    0.000068
   417  113.059775    0.000068
   418  110.285530    0.000079
   419  107.499577    0.000378
   420  104.708483    0.000380
   421  101.918313    0.000381
   422   99.134668    0.000384
   423   96.362713    0.000387
   424   93.607205    0.000391
   425   90.872518    0.000395
   426   88.162665    0.000400
   427   85.481316    0.000407
   428   82.831818    0.000415
   429   80.217212    0.000425
   430   77.640248    0.000437
   431   75.103402    0.000451
   432   72.608891    0.000469
   433   70.158685    0.000490
   434   67.754520    0.000515
   435   65.397914    0.000546
   436   63.090174    0.000582
   437   60.832413    0.000626
   438   58.625558    0.000679
   439   56.470363    0.000742
   440   54.367418    0.000817
   441   52.317158    0.000906
   442   50.319878    0.000714
   443   48.375736    0.001138
   444   46.484765    0.001287
   445   44.646883    0.001463
   446   42.861900    0.001670
   447   41.129525    0.001916
   448   39.449377    0.002205
   449   37.820987    0.002190
   450   36.243811    0.002637
   451   34.717234    0.003060
   452   33.240576    0.003603
   453   31.813099    0.004263
   454   30.434014    0.005016
   455   29.102483    0.005914
   456   27.817630    0.006965
   457   26.578539    0.008187
   458   25.384265    0.009628
   459   24.233836    0.011317
   460   23.126256    0.013294
   461   22.060512    0.015611
   462   21.035575    0.018319
   463   20.050404    0.021482
   464   19.103950    0.025174
   465   18.195161    0.029480
   466   17.322980    0.034504
   467   16.486351    0.040356
   468   15.684224    0.047166
   469   14.915549    0.055078
   470   14.179287    0.064261
   471   13.474406    0.074902
   472   12.799887    0.087213
   473   12.154722    0.101436
   474   11.537916    0.117838
   475   10.948491    0.136736
   476   10.385485    0.158472
   477    9.847952    0.183453
   478    9.334965    0.212091
   479    8.845617    0.244869
   480    8.379019    0.282307
   481    7.934303    0.324983
   482    7.510622    0.373511
   483    7.107150    0.428593
   484    6.723081    0.490993
   485    6.357633    0.561573
   486    6.010043    0.641226
   487    5.679573    0.730939
   488    5.365505    0.831779
   489    5.067142    0.944905
   490    4.783811    1.071559
   491    4.514859    1.213054
   492    4.259654    1.370761
   493    4.017586    1.546167
   494    3.788067    1.740819
   495    3.570527    1.956411
   496    3.364419    2.194732
   497    3.169213    2.457625
   498    2.984402    2.747072
   499    2.809496    3.065053
   500    2.644023    3.413611
   501    2.487532    3.794881
   502    2.339587    4.210955
   503    2.199772    4.664125
   504    2.067686    5.156894
   505    1.942945    5.692269
   506    1.825183    6.273988
   507    1.714046    6.906476
   508    1.609199    7.594540
   509    1.510318    8.343005
   510    1.417097    9.155917
   511    1.329240   10.036279
   512    1.246466   10.986022
   513    1.168507   12.006000
   514    1.095108   13.096519
   515    1.026024   14.257656
   516    0.961023   15.489578
   517    0.899883   16.792269
   518    0.842394   18.165854
   519    0.788355   19.610577
   520    0.737574   21.126947
   521    0.689871   22.713283
   522    0.645073   24.368899
   523    0.603016   26.091812
   524    0.563546   27.877955
   525    0.526513   29.722486
   526    0.491779   31.619813
   527    0.459211   33.563616
   528    0.428683   35.547862
   529    0.400076   37.567296
   530    0.373277   39.616149
   531    0.348179   41.688908
   532    0.324682   43.779278
   533    0.302689   45.880672
   534    0.282111   47.985307
   535    0.262863   50.084849
   536    0.244863   52.171276
   537    0.228035   54.234522
   538    0.212309   56.264864
   539    0.197615   58.251364
   540    0.183890   60.182367
   541    0.171074   62.046690
   542    0.159110   63.832497
   543    0.147945   65.528949
   544    0.137528   67.123817
   545    0.127812   68.604763
   546    0.118752   69.961901
   547    0.110306   71.183286
   548    0.102435   72.259936
   549    0.095101   73.182630
   550    0.088271   73.942045
   551    0.081910   74.529264
   552    0.075989   74.941442
   553    0.070478   75.166776
   554    0.065351   75.201523
   555    0.060582   75.041862
   556    0.056147   74.689062
   557    0.052024   74.137348
   558    0.048191   73.390949
   559    0.044631   72.454547
   560    0.041323   71.339743
   561    0.038251   70.049448
   562    0.035399   68.597591
   563    0.032752   66.994107
   564    0.030295   65.244118
   565    0.028016   63.366613
   566    0.025902   61.370891
   567    0.023942   59.280120
   568    0.022125   57.103323
   569    0.020441   54.860140
   570    0.018881   52.568729
   571    0.017436   50.235795
   572    0.016098   47.882330
   573    0.014859   45.522104
   574    0.013712   43.171572
   575    0.012650   40.842709
   576    0.011668   38.545373
   577    0.010760   36.295850
   578    0.009920   34.102398
   579    0.009144   31.971551
   580    0.008427   29.906138
   581    0.007764   27.917393
   582    0.007151   26.009898
   583    0.006585   24.191772
   584    0.006063   22.464903
   585    0.005581   20.829237
   586    0.005136   19.303605
   587    0.004726   17.887162
   588    0.004347   16.581517
   589    0.003998   15.386784
   590    0.003676   14.301131
   591    0.003379   13.323697
   592    0.003105   12.452141
   593    0.002853   11.685323
   594    0.002621   11.021762
   595    0.002407   10.461773
   596    0.002211   10.005599
   597    0.002029    9.653946
   598    0.001863    9.405891
   599    0.001709    9.258605
   600    0.001568    9.208345
   601    0.001438    9.250394
   602    0.001319    9.381341
   603    0.001209    9.598785
   604    0.001108    9.903035
   605    0.001016   10.294861
   606    0.000931   10.775987
   607    0.000853   11.347315
   608    0.000781   12.010442
   609    0.000715   12.765048
   610    0.000655   13.612645
   611    0.000599   14.554504
   612    0.000548   15.592838
   613    0.000502   16.730921
   614    0.000459   17.975669
   615    0.000420   19.331627
   616    0.000384   20.806123
   617    0.000351   22.405570
   618    0.000321   24.137901
   619    0.000293   26.008764
   620    0.000268   28.027206
   621    0.000244   30.204523
   622    0.000223   32.547043
   623    0.000204   35.069605
   624    0.000186   37.782713
   625    0.000170   40.705024
   626    0.000155   43.850890
   627    0.000141   47.236350
   628    0.000129   50.878950
   629    0.000117   54.802450
   630    0.000107   59.025145
   631    0.000098   63.570587
   632    0.000089   68.456564
   633    0.000081   73.705152
   634    0.000074   79.350500
   635    0.000067   85.408239
   636    0.000061   91.912948
   637    0.000056   98.889340
   638    0.000051  106.375648
   639    0.000046  114.403101
   640    0.000042  123.004307
   641    0.000038  132.218538
   642    0.000035  142.082108
   643    0.000032  152.629848
   644    0.000029  163.895068
   645    0.000026  175.923910
   646    0.000024  188.746225
   647    0.000022  202.410432
   648    0.000020  216.957247
   649    0.000018  232.430923
#CDM-nucleon cross sections[pb]:
   201 4.815783E-10 #proton SI
   202 0.000000E+00 #proton SD
   203 6.373150E-10 #neutron SI
   204 0.000000E+00 #neutron SD
